#Netuno-F/Paraná-25/v2			LT 2 Dez 2019		StratoLoggerCF (SL-3)
#t(s) h(m)	
0	1.2192
0.05	1.524
0.1	2.4384
0.15	2.7432
0.2	3.6576
0.25	3.9624
0.3	4.8768
0.35	6.4008
0.4	6.7056
0.45	7.0104
0.5	8.2296
0.55	8.8392
0.6	10.0584
0.65	11.2776
0.7	12.4968
0.75	14.0208
0.8	15.24
0.85	17.0688
0.9	18.8976
0.95	21.336
1	22.86
1.05	25.908
1.1	30.1752
1.15	33.2232
1.2	36.2712
1.25	40.2336
1.3	44.196
1.35	47.5488
1.4	51.816
1.45	54.864
1.5	58.8264
1.55	62.1792
1.6	65.8368
1.65	69.1896
1.7	72.8472
1.75	76.8096
1.8	79.8576
1.85	83.5152
1.9	87.1728
1.95	90.2208
2	93.5736
2.05	96.6216
2.1	100.2792
2.15	103.632
2.2	106.3752
2.25	109.728
2.3	113.0808
2.35	116.7384
2.4	119.1768
2.45	121.92
2.5	125.2728
2.55	128.6256
2.6	131.6736
2.65	133.8072
2.7	137.16
2.75	140.208
2.8	142.9512
2.85	145.6944
2.9	148.4376
2.95	151.1808
3	154.5336
3.05	156.6672
3.1	159.1056
3.15	161.8488
3.2	164.2872
3.25	166.7256
3.3	169.164
3.35	172.212
3.4	174.6504
3.45	176.784
3.5	179.5272
3.55	181.6608
3.6	184.7088
3.65	186.2328
3.7	188.6712
3.75	191.4144
3.8	193.2432
3.85	194.7672
3.9	197.5104
3.95	199.644
4	201.4728
4.05	203.6064
4.1	205.4352
4.15	207.5688
4.2	209.7024
4.25	211.836
4.3	213.6648
4.35	215.1888
4.4	217.0176
4.45	218.8464
4.5	220.98
4.55	223.4184
4.6	224.6376
4.65	226.4664
4.7	227.6856
4.75	229.5144
4.8	231.3432
4.85	232.2576
4.9	234.696
4.95	236.22
5	237.744
5.05	239.5728
5.1	240.792
5.15	242.0112
5.2	244.1448
5.25	245.0592
5.3	246.888
5.35	247.1928
5.4	249.0216
5.45	250.8504
5.5	251.7648
5.55	253.5936
5.6	254.508
5.65	255.7272
5.7	256.6416
5.75	258.1656
5.8	259.08
5.85	260.604
5.9	261.2136
5.95	262.4328
6	263.3472
6.05	264.5664
6.1	265.176
6.15	266.3952
6.2	267.3096
6.25	267.6144
6.3	269.1384
6.35	269.748
6.4	270.9672
6.45	271.272
6.5	272.4912
6.55	272.796
6.6	273.7104
6.65	274.32
6.7	274.6248
6.75	275.844
6.8	276.7584
6.85	276.7584
6.9	277.368
6.95	278.2824
7	278.892
7.05	279.5016
7.1	280.1112
7.15	280.1112
7.2	280.7208
7.25	280.7208
7.3	281.6352
7.35	281.94
7.4	282.2448
7.45	282.5496
7.5	282.5496
7.55	283.1592
7.6	283.1592
7.65	283.464
7.7	283.1592
7.75	283.464
7.8	283.1592
7.85	283.7688
7.9	284.0736
7.95	284.0736
8	283.7688
8.05	283.7688
8.1	284.0736
8.15	284.0736
8.2	283.7688
8.25	283.7688
8.3	283.7688
8.35	283.464
8.4	283.7688
8.45	283.464
8.5	283.7688
8.55	283.464
8.6	283.1592
8.65	282.8544
8.7	282.5496
8.75	282.5496
8.8	281.94
8.85	281.94
8.9	281.0256
8.95	280.7208
9	280.1112
9.05	280.1112
9.1	279.8064
9.15	278.892
9.2	277.9776
9.25	277.9776
9.3	277.368
9.35	277.0632
9.4	276.4536
9.45	275.844
9.5	275.2344
9.55	275.2344
9.6	274.32
9.65	274.9296
9.7	274.0152
9.75	274.0152
9.8	273.4056
9.85	273.1008
9.9	273.1008
9.95	272.796
10	272.4912
10.05	272.796
10.1	272.1864
10.15	270.9672
10.2	270.0528
10.25	269.1384
10.3	268.5288
10.35	267.6144
10.4	266.7
10.45	266.0904
10.5	265.7856
10.55	264.8712
10.6	263.3472
10.65	262.4328
10.7	262.7376
10.75	261.2136
10.8	260.9088
10.85	259.08
10.9	258.7752
10.95	258.1656
11	256.3368
11.05	255.7272
11.1	256.032
11.15	254.8128
11.2	255.1176
11.25	253.8984
11.3	252.3744
11.35	251.1552
11.4	250.2408
11.45	249.3264
11.5	249.0216
11.55	248.7168
11.6	248.1072
11.65	246.2784
11.7	245.0592
11.75	243.84
11.8	242.9256
11.85	242.0112
11.9	241.4016
11.95	240.792
12	238.3536
12.05	237.4392
12.1	235.9152
12.15	235.9152
12.2	236.5248
12.25	232.8672
12.3	231.0384
12.35	231.9528
12.4	231.0384
12.45	230.7336
12.5	231.0384
12.55	230.124
12.6	228.2952
12.65	226.7712
12.7	224.6376
12.75	223.4184
12.8	223.7232
12.85	222.8088
12.9	220.6752
12.95	219.1512
13	217.6272
13.05	217.0176
13.1	216.408
13.15	213.0552
13.2	213.6648
13.25	213.36
13.3	209.3976
13.35	209.7024
13.4	210.0072
13.45	209.7024
13.5	208.4832
13.55	207.8736
13.6	207.8736
13.65	206.6544
13.7	204.5208
13.75	203.9112
13.8	203.9112
13.85	203.9112
13.9	202.0824
13.95	199.644
14	199.0344
14.05	198.12
14.1	198.12
14.15	196.9008
14.2	194.7672
14.25	191.7192
14.3	190.5
14.35	190.8048
14.4	191.7192
14.45	188.6712
14.5	187.452
14.55	188.0616
14.6	188.0616
14.65	187.452
14.7	185.0136
14.75	183.4896
14.8	181.0512
14.85	179.5272
14.9	180.4416
14.95	178.6128
15	176.784
15.05	177.3936
15.1	176.4792
15.15	176.1744
15.2	174.6504
15.25	175.5648
15.3	174.9552
15.35	173.4312
15.4	172.212
15.45	169.7736
15.5	169.4688
15.55	168.2496
15.6	166.7256
15.65	165.8112
15.7	163.6776
15.75	162.4584
15.8	159.7152
15.85	160.3248
15.9	160.3248
15.95	158.496
16	156.3624
16.05	155.1432
16.1	155.1432
16.15	153.924
16.2	153.924
16.25	152.7048
16.3	152.0952
16.35	149.9616
16.4	148.7424
16.45	148.1328
16.5	147.2184
16.55	147.5232
16.6	146.6088
16.65	144.1704
16.7	142.3416
16.75	140.5128
16.8	140.8176
16.85	139.5984
16.9	139.2936
16.95	137.16
17	136.2456
17.05	133.5024
17.1	131.6736
17.15	131.064
17.2	130.4544
17.25	132.2832
17.3	129.8448
17.35	128.9304
17.4	127.1016
17.45	126.492
17.5	125.2728
17.55	124.968
17.6	124.968
17.65	122.5296
17.7	120.7008
17.75	119.4816
17.8	118.872
17.85	116.7384
17.9	117.0432
17.95	117.348
18	115.2144
18.05	114.3
18.1	113.0808
18.15	110.3376
18.2	110.0328
18.25	109.1184
18.3	107.8992
18.35	108.204
18.4	105.4608
18.45	104.5464
18.5	103.632
18.55	102.7176
18.6	101.4984
18.65	101.8032
18.7	100.8888
18.75	99.06
18.8	98.1456
18.85	96.6216
18.9	96.3168
18.95	96.012
19	95.4024
19.05	93.8784
19.1	92.964
19.15	90.2208
19.2	89.6112
19.25	88.392
19.3	88.6968
19.35	87.4776
19.4	84.4296
19.45	84.1248
19.5	83.2104
19.55	83.2104
19.6	78.6384
19.65	78.9432
19.7	78.3336
19.75	76.2
19.8	77.1144
19.85	75.8952
19.9	76.5048
19.95	74.0664
20	73.4568
20.05	72.5424
20.1	71.3232
20.15	71.0184
20.2	69.4944
20.25	67.3608
20.3	65.2272
20.35	64.6176
20.4	63.3984
20.45	62.7888
20.5	63.3984
20.55	62.484
20.6	61.2648
20.65	58.5216
20.7	57.6072
20.75	55.1688
20.8	54.864
20.85	54.5592
20.9	55.7784
20.95	54.864
21	53.9496
21.05	52.7304
21.1	51.2064
21.15	50.292
21.2	49.3776
21.25	48.768
21.3	47.244
21.35	46.3296
21.4	45.1104
21.45	44.5008
21.5	41.7576
21.55	41.4528
21.6	40.5384
21.65	39.0144
21.7	36.2712
21.75	35.6616
21.8	35.6616
21.85	35.6616
21.9	35.052
21.95	33.2232
22	31.0896
22.05	30.1752
22.1	29.2608
22.15	28.956
22.2	28.956
22.25	27.7368
22.3	26.2128
22.35	24.9936
22.4	23.1648
22.45	22.86
22.5	21.9456
22.55	21.6408
22.6	20.1168
22.65	18.288
22.7	15.5448
22.75	15.8496
22.8	15.5448
22.85	16.1544
22.9	14.0208
22.95	11.5824
23	10.9728
23.05	10.668
23.1	9.4488
23.15	8.8392
23.2	7.3152
23.25	8.8392
23.3	7.3152
23.35	4.8768
23.4	-7.62
23.45	-7.62
23.5	-7.62
23.55	-7.62
23.6	-7.62
23.65	-7.3152
23.7	-7.3152
23.75	-7.3152
23.8	-7.62
23.85	-7.62
23.9	-7.62
23.95	-7.3152
24	-7.3152
24.05	-7.62
24.1	-7.3152
24.15	-7.3152
24.2	-7.3152
24.25	-7.62
24.3	-7.0104
24.35	-7.0104
24.4	-7.3152
24.45	-7.62
24.5	-7.3152
24.55	-7.3152
24.6	-7.3152
24.65	-7.3152
24.7	-7.3152
24.75	-7.3152
24.8	-7.3152
24.85	-7.3152
24.9	-7.3152
24.95	-7.3152
25	-7.0104
25.05	-7.3152
25.1	-7.3152
25.15	-7.3152
25.2	-7.62
25.25	-7.3152
25.3	-7.3152
25.35	-7.62
25.4	-7.3152
25.45	-7.62
25.5	-7.0104
25.55	-7.62
25.6	-7.62
25.65	-7.3152
25.7	-7.0104
25.75	-7.3152
25.8	-7.3152
25.85	-7.0104
25.9	-7.62
25.95	-7.0104
26	-7.62
26.05	-7.3152
26.1	-7.0104
26.15	-7.3152
26.2	-7.3152
26.25	-7.3152
26.3	-7.3152
26.35	-7.0104
26.4	-7.3152
26.45	-7.62
26.5	-7.62
26.55	-7.62
26.6	-7.3152
26.65	-7.3152
26.7	-7.3152
26.75	-7.3152
26.8	-6.7056
26.85	-7.62
26.9	-7.62
26.95	-7.0104
27	-7.3152
27.05	-7.3152
27.1	-7.0104
27.15	-7.62
27.2	-7.3152
27.25	-7.3152
27.3	-7.62
27.35	-7.3152
27.4	-7.0104
27.45	-7.3152
27.5	-7.3152
27.55	-7.3152
27.6	-7.0104
27.65	-6.7056
27.7	-7.62
27.75	-7.3152
27.8	-7.62
27.85	-7.0104
27.9	-7.3152
27.95	-7.62
28	-7.62
28.05	-7.62
28.1	-7.3152
28.15	-7.0104
28.2	-7.0104
28.25	-7.3152
28.3	-7.3152
28.35	-7.0104
28.4	-7.3152
28.45	-7.3152
28.5	-7.62
28.55	-7.3152
28.6	-7.62
28.65	-6.7056
28.7	-7.0104
28.75	-7.62
28.8	-7.3152
28.85	-7.62
28.9	-7.3152
28.95	-7.3152
29	-7.62
29.05	-7.62
29.1	-7.3152
29.15	-7.62
29.2	-7.0104
29.25	-7.3152
29.3	-7.3152
29.35	-6.7056
29.4	-7.3152
29.45	-7.62
29.5	-7.3152
29.55	-7.3152
