#Saturno-Alfa-2_Tita-4_rRocket-EZ-2023-1_LT-2024-01-14
#t(s)	h (m)
0	0
0.25	0
0.5	0
0.75	0.2
1	0.8
1.25	3.4
1.5	9.9
1.75	20.3
2	35
2.25	51.7
2.5	78
2.75	108.3
3	145.8
3.25	188
3.5	227.2
3.75	265
4	289.6
4.25	321.7
4.5	353.3
4.75	383.4
5	413.3
5.25	442.7
5.5	463.7
5.75	489.3
6	517
6.25	542.6
6.5	566.7
6.75	590.4
7	607.6
7.25	629.1
7.5	651
7.75	671.3
8	690.4
8.25	709
8.5	723.1
8.75	741
9	757.8
9.25	773.7
9.5	789.3
9.75	804.7
10	814.3
10.25	827.6
10.5	840.5
10.75	852.1
11	864.4
11.25	874.9
11.5	882.4
11.75	892.1
12	901.1
12.25	909.7
12.5	917.3
12.75	924.2
13	929.9
13.25	935.4
13.5	941
13.75	945.8
14	949.8
14.25	953.1
14.5	955.5
14.75	957.9
15	960.3
15.25	961.3
15.5	961.9
15.75	962.3
16	962.4
16.25	961.6
16.5	959.8
16.75	958.1
17	955.9
17.25	955.3
17.5	952.8
17.75	948.5
18	946.1
18.25	941.1
18.5	932.8
18.75	930.2
19	928.2
19.25	923.9
19.5	919.4
19.75	920
20	914.8
20.25	912.7
20.5	907.8
20.75	907.4
21	905.4
21.25	902.2
21.5	898
21.75	897.2
22	893.6
22.25	891.2
22.5	887.2
22.75	885.3
23	883.4
23.25	880.6
23.5	879.8
23.75	877
24	873.7
24.25	869.7
24.5	867.3
24.75	864.4
25	863.7
25.25	861.1
25.5	858.2
25.75	855
26	852.2
26.25	849.5
26.5	847.5
26.75	844.9
27	842.2
27.25	841.3
27.5	837.6
27.75	835.2
28	832.7
28.25	830.5
28.5	827.9
28.75	825.6
29	823.4
29.25	820.9
29.5	819.6
29.75	816.2
30	814.3
30.25	811.6
30.5	809.9
30.75	807.2
31	804.8
31.25	803
31.5	801.1
31.75	799
32	797.4
32.25	795
32.5	791.7
32.75	788.8
33	788.6
33.25	785.4
33.5	783.4
33.75	781.7
34	779.5
34.25	777.5
34.5	776.2
34.75	774
35	771.8
35.25	770.2
35.5	768
35.75	766.1
36	764.7
36.25	762.7
36.5	759.9
36.75	758.7
37	756.5
37.25	754.3
37.5	753.2
37.75	751.1
38	749.6
38.25	747.3
38.5	745.3
38.75	743.4
39	742.4
39.25	740.1
39.5	738
39.75	736.3
40	734.3
40.25	732.4
40.5	730.6
40.75	729.2
41	727.5
41.25	724.8
41.5	723.2
41.75	721.2
42	719
42.25	716.4
42.5	714.8
42.75	712.9
43	711
43.25	709.1
43.5	706.6
43.75	705.1
44	703.3
44.25	701.6
44.5	699.5
44.75	697.2
45	695.6
45.25	694.1
45.5	692
45.75	690.2
46	687.8
46.25	685.5
46.5	683.8
46.75	682.3
47	680
47.25	678.4
47.5	676.4
47.75	675.2
48	672.9
48.25	671.1
48.5	669.1
48.75	667.8
49	665.4
49.25	663.7
49.5	662
49.75	660.6
50	658.4
50.25	657.2
50.5	655.5
50.75	653.7
51	651.8
51.25	650.5
51.5	648.6
51.75	647.3
52	645.1
52.25	643.9
52.5	641.5
52.75	640.2
53	638.4
53.25	636.7
53.5	635.3
53.75	633.8
54	631.4
54.25	630.2
54.5	628.6
54.75	626.6
55	624.8
55.25	622.7
55.5	620.5
55.75	619.3
56	617.8
56.25	615.7
56.5	613.7
56.75	611.7
57	609.7
57.25	608.8
57.5	606.9
57.75	604.7
58	603.6
58.25	601.9
58.5	599.8
58.75	597.7
59	596.5
59.25	594.8
59.5	593.1
59.75	591.5
60	589.5
60.25	587.7
60.5	586.3
60.75	584.7
61	582.9
61.25	581.2
61.5	578.9
61.75	577.5
62	575.9
62.25	573.8
62.5	572.5
62.75	570.1
63	568.1
63.25	566.6
63.5	565.8
63.75	564.2
64	562.3
64.25	560.6
64.5	558.4
64.75	557.3
65	556.3
65.25	554.7
65.5	553.6
65.75	551.3
66	550.1
66.25	548.5
66.5	547.7
66.75	545.7
67	544.2
67.25	542.8
67.5	541.1
67.75	539.2
68	538.6
68.25	536.1
68.5	534.4
68.75	532.5
69	531.4
69.25	529.3
69.5	527.8
69.75	525.7
70	524.2
70.25	522.3
70.5	520.5
70.75	518.3
71	517.3
71.25	515.3
71.5	513
71.75	510.5
72	508.3
72.25	506.6
72.5	505.3
72.75	502.9
73	501.2
73.25	498.7
73.5	496.9
73.75	493.8
74	492.9
74.25	491.5
74.5	488.9
74.75	486.7
75	484.3
75.25	481.5
75.5	479.9
75.75	477.8
76	474.8
76.25	472.8
76.5	470.2
76.75	468.4
77	466.3
77.25	465.2
77.5	461.6
77.75	458.6
78	456.9
78.25	454.8
78.5	452.3
78.75	451.4
79	448.5
79.25	446.2
79.5	444.6
79.75	441.1
80	439.6
80.25	437.9
80.5	435.3
80.75	432.5
81	430.5
81.25	428.1
81.5	425
81.75	423.7
82	421
82.25	419.4
82.5	416.9
82.75	414.4
83	413.7
83.25	410.6
83.5	408.3
83.75	406.4
84	404.6
84.25	401.6
84.5	399.2
84.75	398
85	395.8
85.25	393
85.5	391.8
85.75	388.1
86	386.4
86.25	383.4
86.5	380.8
86.75	378.3
87	376
87.25	374
87.5	371.4
87.75	370
88	367.1
88.25	365
88.5	362.6
88.75	359.8
89	357.8
89.25	356.3
89.5	353.8
89.75	351.4
90	350
90.25	347.4
90.5	344.6
90.75	343.6
91	341
91.25	338.6
91.5	335.9
91.75	333.2
92	331
92.25	329.6
92.5	327.1
92.75	325.3
93	322.9
93.25	320.5
93.5	318.1
93.75	316.4
94	313.4
94.25	311.1
94.5	308.7
94.75	306
95	303.8
95.25	302.5
95.5	300.4
95.75	297.6
96	295
96.25	292.4
96.5	290.1
96.75	288.3
97	286.3
97.25	284.5
97.5	282.1
97.75	279.2
98	277
98.25	275.5
98.5	272.7
98.75	270.4
99	267.9
99.25	266.6
99.5	263
99.75	261.3
100	259.1
100.25	256.2
100.5	253.5
100.75	251.8
101	249
101.25	247.3
101.5	244.2
101.75	242.3
102	239.6
102.25	237.5
102.5	235
102.75	233.2
103	231
103.25	229.3
103.5	226.4
103.75	223.9
104	222.5
104.25	221.1
104.5	218.5
104.75	216.3
105	214.7
105.25	212.4
105.5	211.1
105.75	209.4
106	206.9
106.25	205
106.5	203.4
106.75	201.4
107	199.4
107.25	197.2
107.5	195.8
107.75	193.5
108	191.3
108.25	189.7
108.5	188.1
108.75	186.2
109	184.2
109.25	182.2
109.5	180.1
109.75	177
110	175.1
110.25	172.6
110.5	171.1
110.75	168.6
111	166.7
111.25	163.6
111.5	162.4
111.75	159.3
112	157.7
112.25	155.6
112.5	153.3
112.75	151.4
113	149.1
113.25	146.7
113.5	145.6
113.75	144.1
114	141.3
114.25	139.6
114.5	137.6
114.75	134.9
115	132.6
115.25	130.5
115.5	129.1
115.75	127.2
116	125
116.25	122
116.5	120.7
116.75	118.9
117	116.7
117.25	113.3
117.5	111.7
117.75	109.8
118	108.1
118.25	105.7
118.5	103.3
118.75	100.1
119	98.2
119.25	96
119.5	93.9
119.75	91.8
120	88.9
120.25	87.2
120.5	85.8
120.75	82.3
121	80.7
121.25	78.4
121.5	75.4
121.75	72.8
122	71
122.25	68.2
122.5	66.7
122.75	63.8
123	61.1
123.25	59.1
123.5	56.1
123.75	54.3
124	52.4
124.25	49.6
124.5	47.2
124.75	44.9
125	42.9
125.25	40.3
125.5	38.6
125.75	35.5
126	33.5
126.25	31.2
126.5	28.4
126.75	26.3
127	24.7
127.25	22.6
 	
