# Netuno-F/Galateia-9			LT 17 Dez 2023		StratoLoggerCF (SL-9)	
# t(s)	h (m)
0	3.6576
0.05	4.2672
0.1	5.1816
0.15	5.4864
0.2	6.096
0.25	7.3152
0.3	8.2296
0.35	9.4488
0.4	10.668
0.45	12.4968
0.5	13.1064
0.55	14.6304
0.6	16.4592
0.65	18.288
0.7	19.812
0.75	22.2504
0.8	24.0792
0.85	26.5176
0.9	28.0416
0.95	30.48
1	32.004
1.05	34.4424
1.1	36.8808
1.15	39.624
1.2	41.4528
1.25	43.5864
1.3	45.72
1.35	47.8536
1.4	49.9872
1.45	51.816
1.5	54.5592
1.55	56.6928
1.6	58.5216
1.65	60.96
1.7	63.0936
1.75	64.9224
1.8	67.3608
1.85	69.1896
1.9	71.0184
1.95	73.152
2	74.9808
2.05	76.8096
2.1	78.9432
2.15	80.4672
2.2	81.9912
2.25	84.4296
2.3	85.6488
2.35	86.868
2.4	88.6968
2.45	90.8304
2.5	92.0496
2.55	94.1832
2.6	94.7928
2.65	96.6216
2.7	98.1456
2.75	99.3648
2.8	100.8888
2.85	103.0224
2.9	103.9368
2.95	105.4608
3	106.68
3.05	108.204
3.1	109.1184
3.15	110.9472
3.2	111.8616
3.25	113.0808
3.3	114.3
3.35	115.5192
3.4	117.348
3.45	117.9576
3.5	119.1768
3.55	120.396
3.6	121.92
3.65	122.8344
3.7	124.0536
3.75	125.2728
3.8	126.1872
3.85	127.1016
3.9	127.7112
3.95	129.2352
4	129.54
4.05	130.4544
4.1	131.6736
4.15	131.9784
4.2	133.1976
4.25	133.8072
4.3	135.0264
4.35	135.636
4.4	136.2456
4.45	136.8552
4.5	137.4648
4.55	138.0744
4.6	138.9888
4.65	139.5984
4.7	140.208
4.75	141.4272
4.8	141.732
4.85	142.9512
4.9	142.6464
4.95	143.8656
5	144.1704
5.05	144.78
5.1	145.0848
5.15	145.9992
5.2	145.9992
5.25	146.9136
5.3	147.5232
5.35	147.5232
5.4	147.828
5.45	148.4376
5.5	148.4376
5.55	148.7424
5.6	149.0472
5.65	149.352
5.7	149.6568
5.75	149.9616
5.8	149.6568
5.85	150.5712
5.9	150.2664
5.95	150.2664
6	150.2664
6.05	150.2664
6.1	150.876
6.15	150.5712
6.2	150.2664
6.25	150.5712
6.3	150.5712
6.35	149.9616
6.4	150.2664
6.45	150.5712
6.5	149.9616
6.55	149.9616
6.6	149.6568
6.65	149.352
6.7	149.352
6.75	148.1328
6.8	148.1328
6.85	146.9136
6.9	146.6088
6.95	146.304
7	145.6944
7.05	145.0848
7.1	144.1704
7.15	143.5608
7.2	142.9512
7.25	142.3416
7.3	141.732
7.35	142.0368
7.4	140.8176
7.45	140.5128
7.5	139.9032
7.55	138.684
7.6	138.684
7.65	138.0744
7.7	137.7696
7.75	136.5504
7.8	136.2456
7.85	135.3312
7.9	134.112
7.95	133.5024
8	133.8072
8.05	132.8928
8.1	132.8928
8.15	131.9784
8.2	132.2832
8.25	130.1496
8.3	129.8448
8.35	128.9304
8.4	131.9784
8.45	134.112
8.5	133.8072
8.55	130.7592
8.6	128.6256
8.65	127.1016
8.7	125.8824
8.75	125.8824
8.8	124.3584
8.85	123.7488
8.9	122.2248
8.95	121.92
9	120.0912
9.05	119.1768
9.1	118.872
9.15	123.7488
9.2	118.5672
9.25	118.5672
9.3	116.7384
9.35	116.7384
9.4	115.824
9.45	114.6048
9.5	113.3856
9.55	113.0808
9.6	112.1664
9.65	112.4712
9.7	112.776
9.75	111.5568
9.8	109.4232
9.85	109.728
9.9	108.204
9.95	108.204
10	107.5944
10.05	107.8992
10.1	107.2896
10.15	106.68
10.2	109.1184
10.25	105.156
10.3	104.5464
10.35	102.4128
10.4	104.8512
10.45	101.8032
10.5	102.4128
10.55	100.8888
10.6	99.6696
10.65	99.3648
10.7	98.4504
10.75	98.7552
10.8	97.8408
10.85	97.536
10.9	98.1456
10.95	98.7552
11	98.4504
11.05	97.8408
11.1	96.6216
11.15	96.012
11.2	96.9264
11.25	96.3168
11.3	94.488
11.35	94.1832
11.4	93.8784
11.45	94.7928
11.5	94.1832
11.55	92.964
11.6	90.2208
11.65	90.2208
11.7	86.5632
11.75	85.0392
11.8	87.4776
11.85	87.1728
11.9	86.868
11.95	84.7344
12	84.1248
12.05	84.4296
12.1	80.4672
12.15	79.248
12.2	78.3336
12.25	81.9912
12.3	80.4672
12.35	81.3816
12.4	82.296
12.45	81.9912
12.5	80.1624
12.55	76.8096
12.6	74.9808
12.65	74.676
12.7	75.2856
12.75	74.676
12.8	72.5424
12.85	73.4568
12.9	74.0664
12.95	73.4568
13	71.628
13.05	70.104
13.1	70.7136
13.15	70.104
13.2	70.4088
13.25	68.58
13.3	69.1896
13.35	67.9704
13.4	66.1416
13.45	65.8368
13.5	66.4464
13.55	66.1416
13.6	64.9224
13.65	63.0936
13.7	63.3984
13.75	61.8744
13.8	61.2648
13.85	61.2648
13.9	59.7408
13.95	59.7408
14	56.6928
14.05	56.388
14.1	56.0832
14.15	55.4736
14.2	55.1688
14.25	55.1688
14.3	53.0352
14.35	51.816
14.4	51.816
14.45	51.2064
14.5	49.9872
14.55	49.0728
14.6	48.1584
14.65	47.5488
14.7	47.244
14.75	46.6344
14.8	45.4152
14.85	43.8912
14.9	43.2816
14.95	42.672
15	42.0624
15.05	41.4528
15.1	40.8432
15.15	41.4528
15.2	39.9288
15.25	40.5384
15.3	40.8432
15.35	41.148
15.4	41.148
15.45	39.624
15.5	39.624
15.55	39.624
15.6	39.3192
15.65	38.4048
15.7	37.7952
15.75	37.1856
15.8	36.576
15.85	36.576
15.9	36.8808
15.95	36.576
16	35.9664
16.05	34.1376
16.1	33.528
16.15	33.528
16.2	32.9184
16.25	32.6136
16.3	32.9184
16.35	32.9184
16.4	31.6992
16.45	31.0896
16.5	30.7848
16.55	32.004
16.6	32.3088
16.65	30.7848
16.7	30.7848
16.75	31.0896
16.8	31.6992
16.85	31.3944
16.9	29.8704
16.95	29.8704
17	29.8704
17.05	28.956
17.1	28.6512
17.15	28.6512
17.2	28.6512
17.25	28.0416
17.3	26.8224
17.35	26.5176
17.4	25.908
17.45	25.6032
17.5	25.908
17.55	26.5176
17.6	26.5176
17.65	25.6032
17.7	24.6888
17.75	23.4696
17.8	22.2504
17.85	22.86
17.9	21.6408
17.95	21.336
18	21.336
18.05	21.336
18.1	21.336
18.15	20.7264
18.2	19.5072
18.25	19.2024
18.3	18.8976
18.35	19.2024
18.4	18.5928
18.45	18.288
18.5	18.288
18.55	18.288
18.6	19.2024
18.65	19.812
18.7	18.8976
18.75	18.288
18.8	17.3736
18.85	17.0688
18.9	15.8496
18.95	15.5448
19	14.9352
19.05	14.0208
19.1	14.3256
19.15	13.716
19.2	12.8016
19.25	12.4968
19.3	12.4968
19.35	12.4968
19.4	11.5824
19.45	12.192
19.5	11.8872
19.55	11.8872
19.6	11.5824
19.65	10.9728
19.7	10.3632
19.75	10.0584
19.8	9.7536
19.85	10.0584
19.9	9.7536
19.95	9.4488
20	9.4488
20.05	9.144
20.1	8.8392
20.15	8.2296
20.2	7.62
20.25	6.4008
20.3	5.7912
20.35	5.4864
20.4	5.7912
20.45	4.2672
20.5	4.572
20.55	4.2672
20.6	4.572
20.65	3.3528
20.7	3.048
20.75	2.1336
20.8	1.524
20.85	1.524
20.9	0.9144
20.95	0.9144
21	0.6096
21.05	0
21.1	-1.2192
21.15	-0.3048
21.2	0.3048
21.25	-0.3048
21.3	-3.048
21.35	-3.3528
21.4	-2.4384
21.45	-2.4384
21.5	-1.524
21.55	-2.4384
21.6	-2.4384
21.65	-2.4384
21.7	-2.4384
21.75	-2.4384
21.8	-2.4384
21.85	-2.7432
21.9	-2.4384
21.95	-2.4384
22	-2.7432
22.05	-3.048
22.1	-2.7432
22.15	-2.4384
22.2	-2.7432
22.25	-2.4384
22.3	-2.4384
22.35	-2.4384
22.4	-2.4384
22.45	-2.7432
22.5	-3.048
22.55	-2.7432
22.6	-2.7432
22.65	-2.7432
22.7	-2.4384
22.75	-3.048
22.8	-2.4384
22.85	-2.7432
22.9	-2.4384
22.95	-2.7432
23	-3.048
23.05	-2.7432
23.1	-2.7432
23.15	-2.7432
23.2	-3.048
23.25	-2.4384
23.3	-2.4384
23.35	-2.4384
23.4	-2.7432
23.45	-2.7432
23.5	-3.048
23.55	-2.4384
23.6	-2.7432
23.65	-2.4384
23.7	-3.048
23.75	-2.4384
23.8	-2.7432
23.85	-2.7432
23.9	-2.7432
23.95	-2.7432
24	-2.7432
24.05	-2.4384
24.1	-2.4384
24.15	-2.7432
24.2	-2.4384
24.25	-2.7432
24.3	-3.3528
24.35	-2.7432
24.4	-2.4384
24.45	-2.4384
24.5	-2.7432
24.55	-2.7432
24.6	-2.7432
24.65	-2.4384
24.7	-2.7432
24.75	-2.7432
24.8	-2.7432
24.85	-2.4384
24.9	-2.4384
24.95	-2.1336
25	-2.4384
25.05	-2.7432
25.1	-2.7432
25.15	-2.7432
25.2	-3.3528
25.25	-3.048
25.3	-3.048
25.35	-2.4384
25.4	-2.7432
25.45	-2.7432
25.5	-2.7432
25.55	-2.4384
25.6	-2.7432
25.65	-2.7432
25.7	-2.4384
25.75	-2.4384
25.8	-2.4384
25.85	-2.4384
25.9	-2.7432
25.95	-2.7432
26	-2.7432
26.05	-2.7432
26.1	-2.4384
26.15	-2.4384
26.2	-2.4384
26.25	-2.4384
26.3	-2.7432
26.35	-2.4384
26.4	-3.048
26.45	-2.7432
26.5	-2.7432
26.55	-2.4384
26.6	-2.7432
26.65	-2.7432
26.7	-2.7432
26.75	-2.7432
26.8	-2.7432
26.85	-2.4384
26.9	-2.7432
26.95	-2.4384
27	-2.7432
27.05	-2.7432
27.1	-2.7432
27.15	-2.4384
27.2	-2.4384
27.25	-2.4384
27.3	-2.7432
27.35	-3.048
27.4	-3.048
27.45	-2.7432
27.5	-2.7432
27.55	-2.4384
27.6	-3.048
27.65	-2.7432
27.7	-2.7432
27.75	-2.7432
27.8	-2.7432
27.85	-2.4384
27.9	-2.4384
27.95	-3.048
28	-2.7432
28.05	-2.7432
28.1	-2.4384
28.15	-3.048
28.2	-2.7432
28.25	-2.7432
28.3	-2.4384
28.35	-2.7432
28.4	-2.7432
28.45	-3.048
28.5	-2.7432
28.55	-3.048
28.6	-2.4384
28.65	-2.7432
28.7	-2.4384
28.75	-2.7432
28.8	-3.048
28.85	-2.4384
28.9	-2.7432
28.95	-2.4384
29	-2.4384
29.05	-2.7432
29.1	-3.048
29.15	-2.4384
29.2	-2.7432
29.25	-2.7432
29.3	-3.048
29.35	-3.3528
29.4	-2.7432
29.45	-2.7432
29.5	-2.4384
29.55	-2.7432

