#Netuno-F/Galateia-2			LT 28 Ago 2022		StratoLoggerCF (SL-9)	
#t(s)	h (m)
0	1.2192
0.05	0.9144
0.1	0.6096
0.15	0.3048
0.2	0.3048
0.25	1.524
0.3	2.1336
0.35	3.048
0.4	3.3528
0.45	3.6576
0.5	4.8768
0.55	6.4008
0.6	7.3152
0.65	9.4488
0.7	11.2776
0.75	13.716
0.8	16.1544
0.85	17.6784
0.9	19.5072
0.95	21.9456
1	23.4696
1.05	26.5176
1.1	30.1752
1.15	32.9184
1.2	37.7952
1.25	41.148
1.3	44.8056
1.35	48.4632
1.4	52.7304
1.45	56.0832
1.5	59.7408
1.55	64.008
1.6	67.6656
1.65	71.9328
1.7	75.2856
1.75	79.248
1.8	82.6008
1.85	85.344
1.9	89.6112
1.95	93.2688
2	97.536
2.05	99.9744
2.1	103.632
2.15	107.2896
2.2	110.9472
2.25	113.3856
2.3	116.7384
2.35	120.7008
2.4	124.0536
2.45	127.1016
2.5	130.7592
2.55	133.8072
2.6	136.5504
2.65	139.5984
2.7	142.0368
2.75	145.0848
2.8	148.1328
2.85	150.5712
2.9	153.924
2.95	156.6672
3	159.4104
3.05	162.7632
3.1	165.8112
3.15	168.5544
3.2	171.2976
3.25	174.0408
3.3	177.0888
3.35	179.5272
3.4	182.5752
3.45	185.928
3.5	188.0616
3.55	190.5
3.6	192.6336
3.65	195.072
3.7	196.9008
3.75	199.9488
3.8	202.0824
3.85	203.9112
3.9	206.9592
3.95	208.788
4	211.2264
4.05	213.6648
4.1	215.7984
4.15	217.6272
4.2	220.3704
4.25	222.504
4.3	224.3328
4.35	226.7712
4.4	229.2096
4.45	231.648
4.5	233.4768
4.55	235.3056
4.6	237.4392
4.65	239.268
4.7	241.4016
4.75	242.0112
4.8	244.4496
4.85	246.2784
4.9	248.1072
4.95	249.936
5	251.1552
5.05	252.984
5.1	255.1176
5.15	256.9464
5.2	258.4704
5.25	259.9944
5.3	261.8232
5.35	263.652
5.4	264.8712
5.45	266.0904
5.5	268.224
5.55	269.1384
5.6	270.3576
5.65	272.1864
5.7	274.32
5.75	275.5392
5.8	276.7584
5.85	278.5872
5.9	279.8064
5.95	281.3304
6	282.2448
6.05	282.5496
6.1	284.0736
6.15	285.5976
6.2	285.9024
6.25	287.1216
6.3	288.036
6.35	289.2552
6.4	290.1696
6.45	291.3888
6.5	292.3032
6.55	293.2176
6.6	294.4368
6.65	295.0464
6.7	295.9608
6.75	296.8752
6.8	298.0944
6.85	298.704
6.9	299.9232
6.95	300.228
7	300.8376
7.05	301.752
7.1	302.3616
7.15	303.5808
7.2	304.1904
7.25	305.1048
7.3	305.7144
7.35	306.324
7.4	307.2384
7.45	307.848
7.5	308.4576
7.55	309.0672
7.6	309.6768
7.65	310.2864
7.7	310.5912
7.75	311.2008
7.8	311.5056
7.85	311.5056
7.9	311.8104
7.95	312.1152
8	312.1152
8.05	312.42
8.1	312.7248
8.15	312.7248
8.2	313.3344
8.25	313.0296
8.3	313.944
8.35	313.3344
8.4	313.3344
8.45	313.3344
8.5	313.6392
8.55	313.0296
8.6	313.3344
8.65	313.6392
8.7	312.7248
8.75	314.2488
8.8	313.3344
8.85	317.6016
8.9	318.2112
8.95	311.8104
9	311.5056
9.05	311.2008
9.1	311.2008
9.15	311.2008
9.2	312.42
9.25	313.0296
9.3	312.1152
9.35	313.6392
9.4	316.3824
9.45	314.8584
9.5	312.42
9.55	312.1152
9.6	310.896
9.65	309.6768
9.7	309.0672
9.75	309.9816
9.8	309.372
9.85	309.6768
9.9	308.4576
9.95	309.0672
10	309.0672
10.05	308.7624
10.1	308.1528
10.15	308.1528
10.2	307.848
10.25	307.848
10.3	307.5432
10.35	307.2384
10.4	307.2384
10.45	305.7144
10.5	306.324
10.55	305.7144
10.6	305.4096
10.65	304.4952
10.7	304.4952
10.75	304.1904
10.8	304.4952
10.85	304.4952
10.9	303.8856
10.95	304.1904
11	303.276
11.05	302.6664
11.1	302.9712
11.15	302.3616
11.2	301.752
11.25	301.4472
11.3	301.1424
11.35	300.5328
11.4	300.228
11.45	300.228
11.5	300.228
11.55	299.3136
11.6	298.704
11.65	298.3992
11.7	299.0088
11.75	297.7896
11.8	297.4848
11.85	297.4848
11.9	296.8752
11.95	296.2656
12	295.9608
12.05	295.656
12.1	294.7416
12.15	294.4368
12.2	294.4368
12.25	293.8272
12.3	293.8272
12.35	293.5224
12.4	292.9128
12.45	292.3032
12.5	292.3032
12.55	291.6936
12.6	291.3888
12.65	291.084
12.7	290.7792
12.75	290.4744
12.8	290.1696
12.85	289.56
12.9	289.8648
12.95	288.6456
13	288.6456
13.05	288.3408
13.1	288.3408
13.15	288.036
13.2	287.7312
13.25	287.7312
13.3	286.8168
13.35	287.1216
13.4	286.512
13.45	286.8168
13.5	286.512
13.55	285.9024
13.6	285.5976
13.65	285.2928
13.7	284.988
13.75	284.3784
13.8	284.988
13.85	284.0736
13.9	283.7688
13.95	283.464
14	283.1592
14.05	282.8544
14.1	282.2448
14.15	282.5496
14.2	282.5496
14.25	282.2448
14.3	281.6352
14.35	281.6352
14.4	281.6352
14.45	281.6352
14.5	281.3304
14.55	280.7208
14.6	280.416
14.65	280.7208
14.7	280.416
14.75	280.416
14.8	280.1112
14.85	280.1112
14.9	279.5016
14.95	279.1968
15	278.892
15.05	278.5872
15.1	278.2824
15.15	277.9776
15.2	277.9776
15.25	277.368
15.3	277.368
15.35	277.368
15.4	277.0632
15.45	276.4536
15.5	276.1488
15.55	275.844
15.6	275.2344
15.65	275.2344
15.7	274.9296
15.75	274.32
15.8	274.32
15.85	274.32
15.9	273.4056
15.95	273.1008
16	272.4912
16.05	272.1864
16.1	271.5768
16.15	270.9672
16.2	270.3576
16.25	270.3576
16.3	270.0528
16.35	269.748
16.4	270.0528
16.45	269.1384
16.5	268.224
16.55	268.224
16.6	267.9192
16.65	267.6144
16.7	267.3096
16.75	267.3096
16.8	266.7
16.85	266.3952
16.9	267.0048
16.95	266.3952
17	266.0904
17.05	265.4808
17.1	264.8712
17.15	264.5664
17.2	264.2616
17.25	264.2616
17.3	263.9568
17.35	263.9568
17.4	263.9568
17.45	263.652
17.5	263.0424
17.55	262.7376
17.6	262.128
17.65	261.8232
17.7	261.8232
17.75	261.2136
17.8	261.2136
17.85	260.604
17.9	259.6896
17.95	258.7752
18	259.3848
18.05	258.4704
18.1	258.4704
18.15	258.1656
18.2	257.556
18.25	257.2512
18.3	256.6416
18.35	256.032
18.4	255.7272
18.45	255.7272
18.5	255.4224
18.55	255.1176
18.6	254.2032
18.65	254.2032
18.7	253.5936
18.75	253.8984
18.8	253.5936
18.85	252.984
18.9	252.3744
18.95	251.7648
19	251.46
19.05	251.46
19.1	251.1552
19.15	250.8504
19.2	250.2408
19.25	249.936
19.3	249.6312
19.35	249.6312
19.4	249.0216
19.45	248.7168
19.5	248.412
19.55	248.1072
19.6	248.1072
19.65	247.4976
19.7	246.5832
19.75	246.5832
19.8	246.2784
19.85	245.6688
19.9	245.0592
19.95	245.0592
20	244.7544
20.05	244.4496
20.1	244.1448
20.15	243.2304
20.2	243.5352
20.25	243.2304
20.3	242.9256
20.35	242.316
20.4	241.7064
20.45	241.0968
20.5	241.0968
20.55	240.4872
20.6	240.4872
20.65	240.1824
20.7	239.5728
20.75	238.9632
20.8	238.6584
20.85	238.3536
20.9	237.744
20.95	237.4392
21	237.4392
21.05	236.8296
21.1	236.5248
21.15	236.22
21.2	235.9152
21.25	235.9152
21.3	235.3056
21.35	235.0008
21.4	234.696
21.45	234.696
21.5	234.3912
21.55	233.4768
21.6	233.7816
21.65	233.4768
21.7	232.5624
21.75	231.9528
21.8	231.9528
21.85	231.3432
21.9	230.7336
21.95	230.124
22	230.124
22.05	229.5144
22.1	229.5144
22.15	228.9048
22.2	228.6
22.25	228.2952
22.3	228.2952
22.35	227.6856
22.4	227.3808
22.45	226.7712
22.5	226.4664
22.55	225.552
22.6	226.4664
22.65	225.552
22.7	225.552
22.75	224.9424
22.8	224.3328
22.85	223.7232
22.9	223.7232
22.95	223.1136
23	223.1136
23.05	222.504
23.1	222.8088
23.15	222.1992
23.2	222.1992
23.25	221.5896
23.3	220.6752
23.35	221.2848
23.4	220.6752
23.45	220.3704
23.5	219.7608
23.55	219.1512
23.6	219.1512
23.65	218.5416
23.7	218.5416
23.75	217.6272
23.8	217.0176
23.85	217.0176
23.9	217.0176
23.95	216.408
24	216.408
24.05	216.1032
24.1	215.1888
24.15	215.4936
24.2	214.5792
24.25	214.2744
24.3	213.9696
24.35	213.9696
24.4	213.9696
24.45	213.0552
24.5	212.4456
24.55	212.1408
24.6	211.5312
24.65	210.9216
24.7	210.9216
24.75	211.2264
24.8	210.6168
24.85	210.6168
24.9	209.7024
24.95	210.0072
25	209.0928
25.05	208.788
25.1	208.4832
25.15	208.1784
25.2	208.1784
25.25	208.1784
25.3	207.8736
25.35	207.8736
25.4	207.264
25.45	206.3496
25.5	206.6544
25.55	206.0448
25.6	206.0448
25.65	205.1304
25.7	204.5208
25.75	203.6064
25.8	203.3016
25.85	203.3016
25.9	203.3016
25.95	202.3872
26	202.3872
26.05	202.0824
26.1	201.7776
26.15	201.4728
26.2	200.8632
26.25	200.8632
26.3	200.2536
26.35	200.2536
26.4	199.9488
26.45	199.9488
26.5	199.3392
26.55	199.644
26.6	198.7296
26.65	197.8152
26.7	197.2056
26.75	196.9008
26.8	196.2912
26.85	196.596
26.9	195.9864
26.95	195.6816
27	195.6816
27.05	195.6816
27.1	194.7672
27.15	194.7672
27.2	194.7672
27.25	194.1576
27.3	193.8528
27.35	193.2432
27.4	193.2432
27.45	192.6336
27.5	192.6336
27.55	192.3288
27.6	191.7192
27.65	191.4144
27.7	191.1096
27.75	190.1952
27.8	189.8904
27.85	189.8904
27.9	189.5856
27.95	188.6712
28	189.5856
28.05	189.2808
28.1	188.6712
28.15	188.6712
28.2	187.1472
28.25	187.452
28.3	186.8424
28.35	186.5376
28.4	186.2328
28.45	185.3184
28.5	185.6232
28.55	185.0136
28.6	185.0136
28.65	184.0992
28.7	184.0992
28.75	183.4896
28.8	184.0992
28.85	182.88
28.9	183.1848
28.95	182.5752
29	181.6608
29.05	181.0512
29.1	180.4416
29.15	180.4416
29.2	181.0512
29.25	180.7464
29.3	179.832
29.35	179.2224
29.4	178.9176
29.45	178.9176
29.5	178.6128
29.55	178.0032
29.6	177.6984
29.65	177.3936
29.7	176.784
29.75	176.784
29.8	176.784
29.85	176.1744
29.9	175.8696
29.95	175.8696
30	174.6504
30.05	174.6504
30.1	174.6504
30.15	174.0408
30.2	173.736
30.25	173.1264
30.3	173.1264
30.35	172.8216
30.4	171.9072
30.45	171.6024
30.5	171.6024
30.55	171.9072
30.6	171.2976
30.65	170.9928
30.7	170.688
30.75	169.4688
30.8	168.8592
30.85	168.5544
30.9	168.5544
30.95	168.5544
31	168.5544
31.05	167.64
31.1	167.64
31.15	167.0304
31.2	166.7256
31.25	166.4208
31.3	166.116
31.35	165.8112
31.4	165.5064
31.45	164.8968
31.5	165.5064
31.55	164.592
31.6	163.9824
31.65	164.8968
31.7	164.2872
31.75	163.068
31.8	163.6776
31.85	162.7632
31.9	162.7632
31.95	161.8488
32	161.8488
32.05	161.2392
32.1	160.9344
32.15	161.2392
32.2	160.02
32.25	160.02
32.3	159.7152
32.35	159.1056
32.4	158.8008
32.45	158.496
32.5	157.8864
32.55	157.8864
32.6	157.5816
32.65	157.2768
32.7	156.3624
32.75	156.0576
32.8	156.6672
32.85	156.3624
32.9	156.0576
32.95	155.448
33	154.8384
33.05	154.8384
33.1	154.2288
33.15	154.2288
33.2	153.6192
33.25	153.0096
33.3	153.3144
33.35	153.3144
33.4	153.0096
33.45	152.7048
33.5	151.7904
33.55	151.4856
33.6	151.7904
33.65	151.1808
33.7	150.2664
33.75	150.876
33.8	150.2664
33.85	149.6568
33.9	149.6568
33.95	149.0472
34	147.828
34.05	147.5232
34.1	146.9136
34.15	147.5232
34.2	146.9136
34.25	146.304
34.3	146.6088
34.35	146.304
34.4	145.6944
34.45	145.6944
34.5	144.78
34.55	144.1704
34.6	143.5608
34.65	143.256
34.7	143.5608
34.75	143.256
34.8	142.9512
34.85	142.0368
34.9	142.3416
34.95	141.4272
35	141.1224
35.05	141.1224
35.1	140.8176
35.15	139.9032
35.2	139.9032
35.25	139.9032
35.3	139.9032
35.35	139.5984
35.4	138.684
35.45	138.684
35.5	138.3792
35.55	137.7696
35.6	137.4648
35.65	137.16
35.7	136.2456
35.75	136.8552
35.8	135.636
35.85	135.3312
35.9	135.0264
35.95	134.7216
36	135.0264
36.05	134.112
36.1	134.112
36.15	133.5024
36.2	133.1976
36.25	132.8928
36.3	132.8928
36.35	132.2832
36.4	131.6736
36.45	131.6736
36.5	131.6736
36.55	130.7592
36.6	130.7592
36.65	130.1496
36.7	130.4544
36.75	129.54
36.8	129.8448
36.85	129.2352
36.9	128.9304
36.95	128.6256
37	128.016
37.05	128.016
37.1	127.4064
37.15	127.4064
37.2	126.7968
37.25	126.492
37.3	126.1872
37.35	125.8824
37.4	125.2728
37.45	124.6632
37.5	124.6632
37.55	124.6632
37.6	124.3584
37.65	123.7488
37.7	123.1392
37.75	122.8344
37.8	122.8344
37.85	122.5296
37.9	122.2248
37.95	121.6152
38	121.0056
38.05	121.3104
38.1	120.396
38.15	119.7864
38.2	119.4816
38.25	119.1768
38.3	119.1768
38.35	118.5672
38.4	118.2624
38.45	117.348
38.5	117.348
38.55	117.348
38.6	117.348
38.65	116.1288
38.7	116.1288
38.75	115.824
38.8	116.1288
38.85	115.824
38.9	115.5192
38.95	115.824
39	114.9096
39.05	114.6048
39.1	113.9952
39.15	113.3856
39.2	112.4712
39.25	112.4712
39.3	112.4712
39.35	112.1664
39.4	111.8616
39.45	111.5568
39.5	111.252
39.55	110.9472
39.6	110.3376
39.65	110.3376
39.7	110.0328
39.75	109.4232
39.8	109.1184
39.85	108.8136
39.9	108.8136
39.95	107.5944
40	107.5944
40.05	106.68
40.1	106.0704
40.15	106.3752
40.2	106.3752
40.25	106.68
40.3	106.3752
40.35	105.7656
40.4	105.7656
40.45	106.0704
40.5	105.156
40.55	104.5464
40.6	104.2416
40.65	103.9368
40.7	103.9368
40.75	103.3272
40.8	103.632
40.85	103.0224
40.9	103.0224
40.95	102.7176
41	102.108
41.05	102.108
41.1	100.8888
41.15	100.8888
41.2	101.1936
41.25	100.8888
41.3	100.584
41.35	99.9744
41.4	99.9744
41.45	99.6696
41.5	98.7552
41.55	99.06
41.6	98.4504
41.65	97.536
41.7	97.8408
41.75	97.536
41.8	96.6216
41.85	96.6216
41.9	96.6216
41.95	96.012
42	96.012
42.05	96.012
42.1	95.0976
42.15	95.4024
42.2	95.0976
42.25	94.488
42.3	93.8784
42.35	92.964
42.4	92.964
42.45	92.964
42.5	92.964
42.55	92.3544
42.6	92.0496
42.65	91.44
42.7	91.44
42.75	91.1352
42.8	90.8304
42.85	90.8304
42.9	89.916
42.95	89.916
43	90.2208
43.05	89.916
43.1	89.6112
43.15	88.6968
43.2	88.6968
43.25	88.392
43.3	88.0872
43.35	88.392
43.4	87.4776
43.45	86.868
43.5	87.1728
43.55	86.5632
43.6	85.6488
43.65	85.6488
43.7	85.0392
43.75	85.0392
43.8	84.4296
43.85	84.7344
43.9	84.1248
43.95	83.82
44	83.5152
44.05	83.2104
44.1	82.6008
44.15	82.296
44.2	81.9912
44.25	81.3816
44.3	81.3816
44.35	80.772
44.4	80.1624
44.45	79.5528
44.5	79.248
44.55	79.8576
44.6	79.248
44.65	78.9432
44.7	79.248
44.75	78.0288
44.8	78.3336
44.85	77.4192
44.9	77.1144
44.95	77.1144
45	77.1144
45.05	78.0288
45.1	77.1144
45.15	76.2
45.2	75.5904
45.25	75.2856
45.3	75.2856
45.35	74.3712
45.4	74.676
45.45	74.676
45.5	74.3712
45.55	74.0664
45.6	73.7616
45.65	72.5424
45.7	72.5424
45.75	72.5424
45.8	71.628
45.85	71.628
45.9	71.3232
45.95	71.0184
46	70.7136
46.05	70.4088
46.1	69.7992
46.15	69.7992
46.2	68.8848
46.25	69.1896
46.3	68.8848
46.35	68.8848
46.4	67.9704
46.45	68.2752
46.5	67.6656
46.55	67.056
46.6	67.3608
46.65	67.056
46.7	66.7512
46.75	66.1416
46.8	65.532
46.85	65.8368
46.9	65.2272
46.95	65.2272
47	64.6176
47.05	64.9224
47.1	64.6176
47.15	64.008
47.2	64.008
47.25	64.008
47.3	63.3984
47.35	63.7032
47.4	63.0936
47.45	63.0936
47.5	61.8744
47.55	62.1792
47.6	61.8744
47.65	61.2648
47.7	61.5696
47.75	60.6552
47.8	61.2648
47.85	60.6552
47.9	60.3504
47.95	60.3504
48	60.3504
48.05	59.7408
48.1	59.436
48.15	59.7408
48.2	58.8264
48.25	58.5216
48.3	58.5216
48.35	58.2168
48.4	58.2168
48.45	57.6072
48.5	57.3024
48.55	56.9976
48.6	56.388
48.65	56.9976
48.7	56.388
48.75	56.0832
48.8	55.4736
48.85	55.4736
48.9	55.4736
48.95	55.1688
49	54.864
49.05	53.9496
49.1	53.6448
49.15	53.34
49.2	53.0352
49.25	53.0352
49.3	52.4256
49.35	52.4256
49.4	50.9016
49.45	51.2064
49.5	50.292
49.55	50.9016
49.6	50.292
49.65	49.6824
49.7	49.6824
49.75	49.6824
49.8	49.0728
49.85	48.4632
49.9	48.768
49.95	48.1584
50	47.8536
50.05	47.5488
50.1	48.4632
50.15	47.8536
50.2	47.244
50.25	46.9392
50.3	46.3296
50.35	45.72
50.4	46.0248
50.45	45.1104
50.5	45.1104
50.55	44.196
50.6	44.196
50.65	44.196
50.7	43.8912
50.75	43.5864
50.8	43.5864
50.85	42.9768
50.9	42.672
50.95	42.3672
51	42.3672
51.05	42.0624
51.1	41.7576
51.15	41.4528
51.2	41.148
51.25	40.5384
51.3	40.5384
51.35	39.9288
51.4	39.624
51.45	38.4048
51.5	38.1
51.55	38.1
51.6	38.1
51.65	37.1856
51.7	36.8808
51.75	36.576
51.8	36.576
51.85	35.3568
51.9	35.052
51.95	35.6616
52	35.052
52.05	35.3568
52.1	35.3568
52.15	34.1376
52.2	33.8328
52.25	33.8328
52.3	33.528
52.35	33.2232
52.4	32.6136
52.45	32.6136
52.5	32.3088
52.55	31.6992
52.6	31.3944
52.65	31.6992
52.7	31.0896
52.75	30.48
52.8	30.1752
52.85	29.5656
52.9	29.5656
52.95	29.2608
53	29.2608
53.05	28.956
53.1	28.6512
53.15	27.7368
53.2	28.3464
53.25	27.432
53.3	27.1272
53.35	27.1272
53.4	27.1272
53.45	26.8224
53.5	26.5176
53.55	26.5176
53.6	25.908
53.65	25.6032
53.7	25.2984
53.75	24.6888
53.8	24.6888
53.85	24.384
53.9	23.7744
53.95	23.4696
54	23.1648
54.05	22.5552
54.1	23.1648
54.15	22.5552
54.2	22.2504
54.25	21.9456
54.3	21.6408
54.35	21.336
54.4	20.4216
54.45	20.1168
54.5	20.1168
54.55	19.5072
54.6	19.5072
54.65	19.2024
54.7	18.8976
54.75	18.8976
54.8	18.288
54.85	17.3736
54.9	17.0688
54.95	16.764
55	17.0688
55.05	16.4592
55.1	16.1544
55.15	16.1544
55.2	14.9352
55.25	14.6304
55.3	14.6304
55.35	14.3256
55.4	14.9352
55.45	14.3256
55.5	14.0208
55.55	13.716
55.6	13.1064
55.65	12.8016
55.7	12.4968
55.75	11.8872
55.8	11.2776
55.85	10.3632
55.9	9.7536
55.95	10.0584
56	9.144
56.05	9.144
56.1	9.144
56.15	8.5344
56.2	7.9248
56.25	8.5344
56.3	8.2296
56.35	7.62
56.4	7.62
56.45	6.7056
56.5	6.7056
56.55	6.4008
56.6	5.4864
56.65	5.4864
56.7	4.8768
56.75	4.8768
56.8	4.572
56.85	4.2672
56.9	3.9624
56.95	2.7432
57	2.4384
57.05	2.4384
57.1	1.8288
57.15	2.1336
57.2	2.1336
57.25	1.8288
57.3	1.8288
57.35	1.8288
57.4	1.8288
57.45	2.1336
57.5	1.524
57.55	1.524
57.6	1.8288
57.65	1.8288
57.7	1.524
57.75	1.8288
57.8	1.524
57.85	2.1336
57.9	1.8288
57.95	2.1336
58	1.8288
58.05	2.1336
58.1	2.1336
58.15	1.8288
58.2	1.8288
58.25	1.8288
58.3	2.1336
58.35	2.4384
58.4	1.8288
58.45	2.4384
58.5	2.1336
58.55	1.8288
58.6	1.524
58.65	2.1336
58.7	1.8288
58.75	2.1336
58.8	1.8288
58.85	1.524
58.9	1.8288
58.95	1.8288
59	1.8288
59.05	1.8288
59.1	1.524
59.15	1.8288
59.2	1.524
59.25	2.1336
59.3	2.1336
59.35	2.1336
59.4	2.1336
59.45	1.2192
59.5	2.1336
59.55	1.524
59.6	1.8288
59.65	1.8288
59.7	1.8288
59.75	2.1336
59.8	1.524
59.85	1.8288
59.9	2.1336
59.95	1.8288
60	2.1336
60.05	1.8288
60.1	1.524
60.15	2.1336
60.2	2.1336
60.25	1.8288
60.3	1.8288
60.35	2.1336
60.4	2.1336
60.45	1.524
60.5	2.1336
60.55	1.8288
60.6	1.8288
60.65	1.8288
60.7	1.524
60.75	1.8288
60.8	1.8288
60.85	2.1336
60.9	1.524
60.95	1.524
61	1.8288
61.05	2.1336
61.1	2.1336
61.15	1.8288
61.2	2.1336
61.25	2.1336
61.3	1.524
61.35	2.1336
61.4	2.1336
61.45	1.8288
61.5	2.1336
61.55	1.8288
61.6	1.8288
61.65	2.1336
61.7	1.524
61.75	1.8288
61.8	1.8288
61.85	1.8288
61.9	1.8288
61.95	2.1336
62	2.4384
62.05	1.524
62.1	2.1336
62.15	2.1336
62.2	1.8288
62.25	1.8288
62.3	2.1336
62.35	2.1336
62.4	1.8288
62.45	2.1336
62.5	1.8288
62.55	1.524
62.6	1.8288
62.65	2.1336
62.7	2.1336
62.75	1.524
62.8	1.524
62.85	1.8288
62.9	1.524
62.95	2.1336
63	2.1336
63.05	1.8288
63.1	1.8288
63.15	2.1336
63.2	1.8288
63.25	2.1336
63.3	2.1336
63.35	1.524
63.4	2.4384
63.45	2.1336
63.5	1.8288
63.55	1.8288
63.6	1.8288
63.65	1.524
63.7	1.8288
63.75	2.1336
63.8	1.8288
63.85	1.8288
63.9	1.8288
63.95	2.1336
64	1.8288
64.05	2.1336
64.1	1.8288
64.15	1.8288
64.2	2.1336
64.25	1.2192
64.3	1.8288
64.35	1.524
64.4	1.8288
64.45	1.8288
64.5	2.1336
64.55	2.1336
64.6	2.1336
64.65	1.524
64.7	1.8288
64.75	1.8288
64.8	1.8288
64.85	1.8288
64.9	1.8288
64.95	1.8288
65	1.8288
65.05	1.524
65.1	2.1336
65.15	1.8288
